Wavelength [nm],Background (Mel),Modulation (Mel),Background (LMS),Modulation (LMS)
380,1.0702e-05,1.1978e-05,4.453e-06,1.8637e-05
382,1.1262e-05,1.1781e-05,4.222e-06,1.7268e-05
384,1.1439e-05,1.2714e-05,4.068e-06,1.8059e-05
386,1.1458e-05,1.1906e-05,3.903e-06,1.748e-05
388,1.1592e-05,1.168e-05,4.043e-06,1.6128e-05
390,9.963e-06,1.1016e-05,4.02e-06,1.6484e-05
392,9.072e-06,1.1259e-05,3.849e-06,1.6318e-05
394,8.973e-06,9.812e-06,3.521e-06,1.5106e-05
396,8.511e-06,1.0536e-05,3.645e-06,1.4804e-05
398,8.266e-06,1.0041e-05,2.892e-06,1.4908e-05
400,9.68e-06,9.588e-06,2.719e-06,1.3179e-05
402,7.741e-06,9.756e-06,2.654e-06,1.3087e-05
404,7.975e-06,8.023e-06,3.102e-06,1.4046e-05
406,8.335e-06,8.183e-06,3.294e-06,1.4611e-05
408,9.225e-06,7.858e-06,3.093e-06,1.5687e-05
410,8.409e-06,7.961e-06,3.35e-06,1.5573e-05
412,9.247e-06,7.763e-06,2.911e-06,1.6973e-05
414,1.3528e-05,9.484e-06,3.25e-06,2.353e-05
416,2.689e-05,1.2784e-05,3.965e-06,4.134e-05
418,6.061e-05,1.9969e-05,4.976e-06,8.494e-05
420,0.00012032,3.464e-05,7.269e-06,0.00016351
422,0.00019905,5.391e-05,1.0287e-05,0.0002753
424,0.0002797,7.327e-05,1.3911e-05,0.0004224
426,0.0003549,9.16e-05,1.928e-05,0.0006126
428,0.0004216,0.00010883,2.565e-05,0.0008292
430,0.0004727,0.00012214,3.158e-05,0.001026
432,0.0004996,0.00013005,3.658e-05,0.0011638
434,0.0004849,0.00012689,4.006e-05,0.0012178
436,0.0004107,0.00011116,4.124e-05,0.001184
438,0.0002942,8.619e-05,4.096e-05,0.0010794
440,0.00017039,5.953e-05,3.977e-05,0.0009128
442,8.853e-05,4.32e-05,3.773e-05,0.0006927
444,6.227e-05,3.933e-05,3.584e-05,0.0004778
446,5.753e-05,3.989e-05,3.506e-05,0.0002934
448,5.962e-05,4.291e-05,3.63e-05,0.00017611
450,6.434e-05,4.608e-05,3.971e-05,0.00012969
452,6.683e-05,4.811e-05,4.222e-05,0.00011825
454,6.627e-05,4.806e-05,4.339e-05,0.00011463
456,6.642e-05,4.856e-05,4.53e-05,0.00011271
458,6.864e-05,4.955e-05,4.861e-05,0.00011464
460,7.152e-05,5.093e-05,5.175e-05,0.00011678
462,7.484e-05,5.201e-05,5.495e-05,0.00011752
464,7.842e-05,5.197e-05,5.837e-05,0.00012031
466,8.314e-05,5.375e-05,6.278e-05,0.00012613
468,9.081e-05,5.429e-05,6.856e-05,0.00013415
470,9.168e-05,5.317e-05,7.063e-05,0.00013412
472,9.061e-05,5.141e-05,7.087e-05,0.00013231
474,8.898e-05,4.938e-05,7.05e-05,0.00012848
476,8.607e-05,4.68e-05,6.793e-05,0.00012172
478,8.444e-05,4.591e-05,6.7e-05,0.0001176
480,8.649e-05,4.925e-05,6.985e-05,0.00011969
482,9.088e-05,5.398e-05,7.417e-05,0.00012438
484,9.161e-05,5.955e-05,7.614e-05,0.00012476
486,9.078e-05,6.918e-05,7.877e-05,0.00012259
488,9.035e-05,0.00010653,9.505e-05,0.00012528
490,9.423e-05,0.0002479,0.00016158,0.00013954
492,0.00010169,0.0006134,0.0003393,0.00017109
494,0.00010547,0.0012849,0.000668,0.0002202
496,0.00011153,0.0020197,0.0010071,0.0002662
498,0.0001257,0.002729,0.0012767,0.0003028
500,0.00015449,0.003378,0.0014504,0.0003251
502,0.00019023,0.003934,0.0015477,0.0003382
504,0.0002196,0.004344,0.001598,0.000345
506,0.000235,0.004515,0.0015918,0.0003417
508,0.0002421,0.004331,0.0014601,0.0003167
510,0.0002442,0.00379,0.0011609,0.0002723
512,0.000241,0.003021,0.0007611,0.0002266
514,0.0002263,0.002231,0.0004271,0.00019756
516,0.0001982,0.0015383,0.0002564,0.00018683
518,0.0001683,0.0009378,0.0002026,0.0001849
520,0.0001512,0.0005512,0.00019054,0.00018585
522,0.000147,0.0003839,0.00018418,0.0001864
524,0.00014746,0.000327,0.0001775,0.00018498
526,0.00014993,0.0003046,0.0001716,0.00018364
528,0.00015134,0.0002873,0.00016617,0.00018015
530,0.00015339,0.0002689,0.00016067,0.00017333
532,0.00015563,0.0002558,0.00015823,0.00016696
534,0.00015619,0.0002442,0.00015655,0.00016071
536,0.00015697,0.0002343,0.00015545,0.0001535
538,0.0001575,0.0002271,0.00015516,0.00014703
540,0.00015546,0.0002221,0.0001554,0.00014208
542,0.00015193,0.0002171,0.00015549,0.00013939
544,0.00014702,0.0002144,0.00015724,0.00014032
546,0.00013982,0.0002127,0.00015806,0.00014501
548,0.00013166,0.0002114,0.0001591,0.00015182
550,0.00012288,0.0002108,0.00016053,0.00016276
552,0.00011616,0.0002107,0.00016151,0.00018178
554,0.00010994,0.0002108,0.00016219,0.0002435
556,0.00010731,0.0002112,0.00016273,0.0004207
558,0.00010765,0.0002112,0.00016281,0.0007948
560,0.00011007,0.0002106,0.00016247,0.0013746
562,0.00011712,0.0002089,0.00016151,0.002168
564,0.00013985,0.0002049,0.00015885,0.003317
566,0.0002183,0.00019928,0.00015603,0.004558
568,0.0004465,0.00019291,0.00015255,0.005816
570,0.0008959,0.00018414,0.00014829,0.007046
572,0.0015618,0.00017543,0.00014612,0.008177
574,0.002488,0.00016893,0.00014913,0.009176
576,0.003661,0.00017206,0.00016104,0.009987
578,0.004823,0.00019608,0.00018406,0.010555
580,0.005964,0.0002565,0.0002226,0.010947
582,0.007016,0.0003703,0.0002823,0.011164
584,0.007903,0.0005543,0.0003643,0.011216
586,0.008586,0.0008977,0.000486,0.011135
588,0.008921,0.0013165,0.000624,0.010974
590,0.008948,0.0017263,0.0007807,0.010727
592,0.008528,0.0020018,0.0009557,0.010421
594,0.007592,0.002104,0.0011531,0.010068
596,0.006151,0.002054,0.0013865,0.009641
598,0.004778,0.0019316,0.0016084,0.009253
600,0.003564,0.0018028,0.0018323,0.008883
602,0.002554,0.0017574,0.002055,0.008517
604,0.0017553,0.0019212,0.002269,0.008174
606,0.0011197,0.002433,0.002478,0.007783
608,0.0007842,0.003216,0.002614,0.007306
610,0.0006762,0.004142,0.002646,0.006674
612,0.0006654,0.005124,0.002554,0.005884
614,0.000685,0.006088,0.002346,0.005018
616,0.0007184,0.007029,0.0019972,0.004058
618,0.0007526,0.007754,0.0015931,0.003141
620,0.0007839,0.008202,0.0011888,0.002312
622,0.0008246,0.008433,0.0008137,0.0015703
624,0.000887,0.008461,0.000566,0.0010395
626,0.0009809,0.008308,0.0005799,0.000898
628,0.0010975,0.008034,0.0008478,0.001143
630,0.0012232,0.00771,0.001213,0.0015383
632,0.0013533,0.007355,0.0016058,0.0019748
634,0.0014856,0.006991,0.0020019,0.002418
636,0.0016297,0.006594,0.00243,0.002903
638,0.0017597,0.006263,0.00281,0.003335
640,0.0018874,0.005977,0.003138,0.003691
642,0.00201,0.005722,0.003392,0.003914
644,0.002132,0.005519,0.003558,0.003989
646,0.00227,0.00532,0.003639,0.003982
648,0.00239,0.005157,0.003671,0.003949
650,0.002478,0.004968,0.003656,0.003873
652,0.002528,0.004728,0.003568,0.003727
654,0.002557,0.004479,0.003383,0.003488
656,0.002584,0.004233,0.003047,0.003104
658,0.002613,0.00405,0.002656,0.002699
660,0.002639,0.003895,0.002237,0.002279
662,0.002651,0.003755,0.0018165,0.0018644
664,0.002626,0.003579,0.0013832,0.001432
666,0.002494,0.003312,0.0009634,0.0010126
668,0.002277,0.002968,0.0006223,0.0006692
670,0.0020019,0.00257,0.0003728,0.0004144
672,0.0016979,0.002158,0.0002405,0.0002778
674,0.0013477,0.0016993,0.00018743,0.0002246
676,0.001025,0.0012903,0.00017036,0.0002085
678,0.0007287,0.0009212,0.00016056,0.00019813
680,0.0004717,0.000608,0.00015392,0.00019206
682,0.0002979,0.0003972,0.00015085,0.00019151
684,0.0002208,0.0002976,0.00014689,0.00019103
686,0.00019601,0.0002603,0.00013983,0.000182
688,0.00018412,0.0002369,0.00013183,0.00017594
690,0.00017408,0.000219,0.00012426,0.00016926
692,0.00016383,0.00019894,0.00011438,0.00016052
694,0.00015254,0.00018182,0.00010574,0.00015277
696,0.00014098,0.00016737,9.729e-05,0.00014427
698,0.00013366,0.00015501,9.093e-05,0.00013893
700,0.00012795,0.0001439,8.495e-05,0.00013145
702,0.00012012,0.0001339,7.964e-05,0.00012904
704,0.00011249,0.0001259,7.47e-05,0.00012464
706,0.00010942,0.00011945,7.122e-05,0.00011941
708,0.00010807,0.0001154,6.852e-05,0.00011858
710,0.00010654,0.00011275,6.729e-05,0.00012039
712,0.00010381,0.00011071,6.491e-05,0.00011871
714,9.862e-05,0.00010815,6.271e-05,0.00011457
716,9.47e-05,0.00010235,5.991e-05,0.00011139
718,9.188e-05,9.931e-05,5.646e-05,0.00010817
720,8.355e-05,9.247e-05,5.332e-05,0.00010376
722,7.409e-05,9.082e-05,5.14e-05,0.00010195
724,7.158e-05,8.854e-05,4.929e-05,0.00010159
726,6.919e-05,8.655e-05,4.815e-05,0.00010221
728,6.723e-05,8.44e-05,4.945e-05,9.683e-05
730,6.459e-05,8.38e-05,4.872e-05,9.782e-05
732,6.418e-05,8.377e-05,4.764e-05,9.618e-05
734,5.52e-05,8.05e-05,4.63e-05,9.067e-05
736,5.052e-05,7.309e-05,3.981e-05,8.526e-05
738,3.82e-05,6.671e-05,3.473e-05,7.359e-05
740,3.255e-05,6.548e-05,3.067e-05,7.139e-05
742,2.768e-05,5.896e-05,2.561e-05,5.923e-05
744,2.345e-05,5.618e-05,2.217e-05,5.081e-05
746,1.6647e-05,5.307e-05,1.8977e-05,4.331e-05
748,1.1231e-05,5.041e-05,1.8378e-05,4.085e-05
750,1.1237e-05,5.441e-05,1.6729e-05,3.396e-05
752,1.3218e-05,5.682e-05,1.6877e-05,2.883e-05
754,1.2448e-05,5.361e-05,1.6283e-05,3.586e-05
756,1.3236e-05,5.574e-05,1.6605e-05,3.015e-05
758,1.9402e-05,5.468e-05,1.5542e-05,3.081e-05
760,1.6716e-05,5.319e-05,1.6142e-05,2.681e-05
762,1.4672e-05,5.385e-05,1.8218e-05,3.431e-05
764,2.307e-05,5.513e-05,1.8354e-05,3.998e-05
766,2.773e-05,5.463e-05,1.7016e-05,4.714e-05
768,3.303e-05,4.51e-05,1.8063e-05,2.998e-05
770,3.077e-05,4.531e-05,1.861e-05,5.183e-05
772,3.986e-05,4.856e-05,1.8892e-05,4.595e-05
774,3.826e-05,3.993e-05,1.8215e-05,5.257e-05
776,4.202e-05,4.931e-05,2.174e-05,6.091e-05
778,4.886e-05,3.865e-05,2.187e-05,6.779e-05
780,5.424e-05,3.667e-05,2.371e-05,6.797e-05
