Wavelength [nm],Background (Mel),Modulation (Mel),Background (LMS),Modulation (LMS)
380,8.748e-06,1.0603e-05,4.534e-06,2.437e-05
382,9.638e-06,1.0896e-05,4.58e-06,2.102e-05
384,7.141e-06,1.1016e-05,4.688e-06,1.8715e-05
386,6.615e-06,1.0426e-05,4.724e-06,2.197e-05
388,7.203e-06,9.75e-06,4.478e-06,2.0129e-05
390,5.386e-06,1.0585e-05,4.55e-06,1.9926e-05
392,5.829e-06,1.0979e-05,4.616e-06,1.6923e-05
394,5.944e-06,1.0859e-05,4.449e-06,1.6364e-05
396,5.59e-06,1.0534e-05,4.569e-06,1.779e-05
398,6.522e-06,1.0971e-05,4.138e-06,1.539e-05
400,7.004e-06,9.912e-06,4.21e-06,1.5716e-05
402,6.495e-06,9.655e-06,3.96e-06,1.6392e-05
404,6.058e-06,9.02e-06,4.09e-06,1.663e-05
406,5.517e-06,9.138e-06,3.904e-06,1.5522e-05
408,6.184e-06,9.884e-06,3.587e-06,1.5058e-05
410,6.618e-06,9.781e-06,3.639e-06,1.5633e-05
412,8.488e-06,9.494e-06,3.949e-06,1.7777e-05
414,1.2224e-05,1.0402e-05,4.248e-06,2.37e-05
416,2.598e-05,1.4255e-05,4.758e-06,4.098e-05
418,5.938e-05,2.337e-05,6.359e-06,8.341e-05
420,0.00011622,3.927e-05,9.239e-06,0.00016095
422,0.00018961,5.917e-05,1.3217e-05,0.0002698
424,0.0002617,7.919e-05,1.8141e-05,0.000407
426,0.0003295,9.788e-05,2.46e-05,0.0005856
428,0.0003898,0.00011617,3.173e-05,0.0007905
430,0.0004348,0.00012957,3.822e-05,0.0009717
432,0.0004574,0.00013599,4.351e-05,0.0010946
434,0.000438,0.00013208,4.669e-05,0.0011394
436,0.0003683,0.00011309,4.714e-05,0.0010993
438,0.0002608,8.566e-05,4.512e-05,0.0009951
440,0.0001514,5.876e-05,4.276e-05,0.0008405
442,8.22e-05,4.278e-05,3.915e-05,0.0006355
444,6.064e-05,3.92e-05,3.6e-05,0.000436
446,5.715e-05,4.023e-05,3.404e-05,0.0002674
448,5.987e-05,4.308e-05,3.479e-05,0.00016336
450,6.39e-05,4.652e-05,3.747e-05,0.0001258
452,6.676e-05,4.849e-05,4.021e-05,0.00011673
454,6.6e-05,4.843e-05,4.159e-05,0.00011245
456,6.601e-05,5.011e-05,4.291e-05,0.00011211
458,6.806e-05,5.209e-05,4.59e-05,0.0001137
460,7.002e-05,5.414e-05,4.859e-05,0.00011565
462,7.338e-05,5.647e-05,5.198e-05,0.00011713
464,7.746e-05,5.853e-05,5.543e-05,0.00011894
466,8.198e-05,6.096e-05,6.002e-05,0.00012425
468,8.852e-05,6.424e-05,6.556e-05,0.00013235
470,8.953e-05,6.302e-05,6.744e-05,0.00013129
472,8.978e-05,6.023e-05,6.751e-05,0.00012841
474,8.77e-05,5.781e-05,6.726e-05,0.00012431
476,8.413e-05,5.409e-05,6.506e-05,0.00011724
478,8.254e-05,5.231e-05,6.471e-05,0.00011343
480,8.537e-05,5.384e-05,6.869e-05,0.00011618
482,9.044e-05,5.713e-05,7.407e-05,0.0001192
484,9.035e-05,6.115e-05,7.725e-05,0.00011864
486,8.897e-05,7.133e-05,8.12e-05,0.00011586
488,8.925e-05,0.00011436,9.99e-05,0.00011914
490,9.313e-05,0.0002688,0.00017202,0.000134
492,9.954e-05,0.0006482,0.0003553,0.00016612
494,0.00010472,0.0013134,0.000679,0.0002123
496,0.00011019,0.002023,0.0010012,0.0002548
498,0.00012502,0.002704,0.0012532,0.0002874
500,0.00015312,0.003329,0.0014148,0.0003083
502,0.00018623,0.003864,0.001505,0.0003202
504,0.000213,0.004244,0.0015525,0.0003272
506,0.0002267,0.004388,0.0015351,0.0003205
508,0.000232,0.00417,0.0013856,0.0002941
510,0.000234,0.003613,0.0010807,0.0002502
512,0.0002282,0.002864,0.0006991,0.0002071
514,0.0002126,0.002115,0.0003959,0.00018139
516,0.00018558,0.0014654,0.0002467,0.00017143
518,0.00015867,0.0009076,0.00020048,0.00016905
520,0.00014544,0.000553,0.00018935,0.00016828
522,0.00014234,0.0004015,0.00018237,0.00016716
524,0.0001433,0.0003466,0.00017517,0.00016431
526,0.00014573,0.0003215,0.0001686,0.0001599
528,0.00014705,0.0003009,0.00016212,0.00015542
530,0.00014843,0.0002791,0.00015596,0.00014762
532,0.00014988,0.0002614,0.00015235,0.00014016
534,0.00015032,0.0002462,0.00014977,0.00013386
536,0.00015065,0.0002337,0.00014793,0.00012969
538,0.00015022,0.0002243,0.0001472,0.00012626
540,0.00014927,0.0002173,0.00014738,0.00012499
542,0.00014576,0.0002123,0.0001482,0.00012723
544,0.00014135,0.0002098,0.00014976,0.00013315
546,0.00013517,0.0002066,0.00015081,0.0001412
548,0.000128,0.0002051,0.00015184,0.0001498
550,0.00011946,0.0002034,0.00015282,0.00016086
552,0.00011303,0.0002021,0.0001534,0.00018115
554,0.00010742,0.0002025,0.00015411,0.0002468
556,0.0001056,0.0002021,0.00015474,0.0004299
558,0.0001054,0.0002018,0.00015531,0.0008015
560,0.00010852,0.0002018,0.00015557,0.0013675
562,0.00011564,0.0002011,0.00015551,0.002138
564,0.0001396,0.00019995,0.00015479,0.003252
566,0.0002254,0.00019754,0.00015413,0.004453
568,0.0004662,0.00019399,0.00015254,0.005678
570,0.0009249,0.00018812,0.00014958,0.006877
572,0.0015966,0.00018324,0.00014629,0.007976
574,0.002525,0.0001797,0.00014176,0.00895
576,0.003684,0.00018267,0.00013801,0.009749
578,0.004824,0.00019616,0.0001393,0.010298
580,0.005943,0.0002267,0.00014909,0.010685
582,0.00697,0.0002863,0.00017137,0.010904
584,0.007827,0.0004073,0.0002134,0.010931
586,0.008491,0.0006894,0.0002989,0.010843
588,0.008817,0.0010593,0.0004187,0.010695
590,0.008843,0.0014215,0.0005748,0.010473
592,0.008436,0.0016614,0.0007683,0.010192
594,0.007535,0.0017518,0.0009978,0.009864
596,0.006136,0.0017432,0.0012772,0.009452
598,0.004778,0.0016859,0.0015489,0.009057
600,0.003563,0.0016282,0.0018194,0.00866
602,0.00254,0.0016572,0.002079,0.008261
604,0.0017152,0.0018973,0.00232,0.007863
606,0.0010504,0.002475,0.002547,0.007405
608,0.0006882,0.003297,0.002687,0.006879
610,0.0005432,0.004226,0.002716,0.00622
612,0.0004872,0.005195,0.002613,0.005431
614,0.0004629,0.006135,0.002386,0.004598
616,0.0004526,0.007046,0.0020178,0.003694
618,0.0004572,0.007724,0.0015984,0.002848
620,0.0004761,0.008154,0.0011825,0.002092
622,0.0005188,0.008375,0.0008023,0.0014282
624,0.0005889,0.008409,0.0005625,0.0009723
626,0.0006968,0.00827,0.0005957,0.000875
628,0.0008305,0.008011,0.0008807,0.0011245
630,0.000974,0.00771,0.0012572,0.0015065
632,0.0011184,0.007373,0.0016589,0.0019246
634,0.0012658,0.007016,0.002062,0.002346
636,0.0014202,0.006613,0.002491,0.002799
638,0.0015538,0.006257,0.002861,0.003188
640,0.0016828,0.005941,0.003169,0.003498
642,0.0018027,0.005651,0.003393,0.003675
644,0.0019209,0.005405,0.003525,0.003723
646,0.002057,0.00517,0.003574,0.003703
648,0.002175,0.00499,0.003576,0.003667
650,0.002266,0.00479,0.003535,0.0036
652,0.002323,0.00455,0.003431,0.003468
654,0.002361,0.004315,0.003241,0.003249
656,0.002407,0.004093,0.002912,0.002894
658,0.002454,0.003938,0.002544,0.002532
660,0.002501,0.003808,0.002151,0.002148
662,0.002532,0.003682,0.001752,0.0017634
664,0.002515,0.003511,0.0013321,0.0013547
666,0.002392,0.003242,0.0009242,0.0009558
668,0.002176,0.002895,0.0005953,0.0006298
670,0.0019077,0.0025,0.0003598,0.0003967
672,0.001615,0.00209,0.0002388,0.0002726
674,0.0012733,0.0016352,0.00018979,0.0002249
676,0.000959,0.00123,0.00017265,0.0002075
678,0.0006701,0.0008694,0.00016258,0.00019706
680,0.0004298,0.0005701,0.00015562,0.0001887
682,0.0002748,0.0003752,0.00015172,0.00019008
684,0.000208,0.0002838,0.00014657,0.00018503
686,0.00018509,0.0002507,0.00013969,0.0001795
688,0.00017119,0.0002295,0.00013143,0.00017389
690,0.00016379,0.0002129,0.00012408,0.00016727
692,0.00015403,0.00019451,0.00011488,0.00015779
694,0.00014229,0.00017777,0.00010552,0.0001522
696,0.00013417,0.00016401,9.756e-05,0.00014224
698,0.00012578,0.00015242,9.07e-05,0.00013875
700,0.00011972,0.00014396,8.498e-05,0.00013449
702,0.00011369,0.00013432,7.931e-05,0.00012959
704,0.00010904,0.00012607,7.543e-05,0.00012601
706,0.00010631,0.00012123,7.131e-05,0.00012301
708,0.00010184,0.0001179,6.835e-05,0.0001206
710,0.00010018,0.00011388,6.495e-05,0.00011991
712,9.342e-05,0.00011138,6.337e-05,0.00011502
714,9.423e-05,0.0001091,6.108e-05,0.00011231
716,9.132e-05,0.00010764,5.666e-05,0.00011017
718,8.249e-05,9.951e-05,5.332e-05,0.00010399
720,7.971e-05,9.627e-05,5.073e-05,9.702e-05
722,7.131e-05,9.048e-05,4.88e-05,9.689e-05
724,6.888e-05,8.584e-05,4.675e-05,9.239e-05
726,6.667e-05,8.765e-05,4.58e-05,8.911e-05
728,6.263e-05,8.451e-05,4.612e-05,8.542e-05
730,6.016e-05,8.193e-05,4.657e-05,8.336e-05
732,5.891e-05,8.201e-05,4.502e-05,8.695e-05
734,5.457e-05,8.188e-05,4.442e-05,8.268e-05
736,4.993e-05,7.287e-05,3.965e-05,7.169e-05
738,4.385e-05,6.759e-05,3.418e-05,6.407e-05
740,3.534e-05,6.234e-05,3.053e-05,5.595e-05
742,2.791e-05,5.897e-05,2.804e-05,5.115e-05
744,2.546e-05,5.763e-05,2.565e-05,4.579e-05
746,2.318e-05,5.492e-05,2.336e-05,3.672e-05
748,1.6815e-05,5.398e-05,2.041e-05,3.575e-05
750,1.687e-05,5.225e-05,1.9681e-05,3.793e-05
752,2.0969e-05,5.045e-05,2.184e-05,3.185e-05
754,1.6619e-05,5.478e-05,2.087e-05,3.12e-05
756,1.878e-05,5.226e-05,2.195e-05,3.328e-05
758,2.123e-05,5.188e-05,2.107e-05,2.829e-05
760,2.0106e-05,5.197e-05,2.068e-05,3.135e-05
762,1.8002e-05,4.981e-05,2.304e-05,3.112e-05
764,1.9505e-05,5.06e-05,2.313e-05,4.1e-05
766,3.052e-05,5.572e-05,2.268e-05,4.453e-05
768,2.528e-05,4.98e-05,2.38e-05,3.818e-05
770,2.724e-05,5.123e-05,2.509e-05,4.79e-05
772,3.207e-05,4.892e-05,2.375e-05,4.969e-05
774,3.467e-05,4.47e-05,2.339e-05,4.999e-05
776,3.543e-05,5.033e-05,2.437e-05,6.506e-05
778,4.083e-05,4.507e-05,2.417e-05,6.961e-05
780,4.461e-05,4.671e-05,2.356e-05,6.82e-05
