Wavelength [nm],Background (Mel),Modulation (Mel),Background (LMS),Modulation (LMS)
380,7.547e-06,1.0159e-05,3.698e-06,2.0746e-05
382,6.131e-06,1.0164e-05,3.455e-06,1.7672e-05
384,6.669e-06,9.672e-06,3.985e-06,1.7425e-05
386,7.908e-06,8.413e-06,3.818e-06,1.9831e-05
388,6.829e-06,9.924e-06,4.342e-06,1.8058e-05
390,7.584e-06,8.773e-06,4.563e-06,1.6516e-05
392,7.025e-06,8.905e-06,4.551e-06,1.6839e-05
394,6.933e-06,9.738e-06,4.006e-06,1.5516e-05
396,6.425e-06,8.329e-06,4.665e-06,1.2951e-05
398,5.106e-06,8.134e-06,4.173e-06,1.1952e-05
400,6.336e-06,9.227e-06,3.811e-06,1.315e-05
402,5.467e-06,8.879e-06,3.818e-06,1.2041e-05
404,4.298e-06,8.486e-06,3.821e-06,1.0548e-05
406,4.458e-06,8.691e-06,3.955e-06,1.1517e-05
408,5.398e-06,7.705e-06,3.496e-06,1.0129e-05
410,4.415e-06,8.183e-06,3.602e-06,1.1872e-05
412,4.123e-06,7.992e-06,3.288e-06,1.4119e-05
414,9.685e-06,7.819e-06,3.535e-06,1.8538e-05
416,2.212e-05,1.2277e-05,4.252e-06,3.513e-05
418,5.291e-05,2.0116e-05,5.695e-06,7.639e-05
420,0.00010365,3.368e-05,8.3e-06,0.00014466
422,0.00016942,5.126e-05,1.1597e-05,0.0002426
424,0.0002357,6.913e-05,1.587e-05,0.0003685
426,0.0002953,8.619e-05,2.123e-05,0.0005291
428,0.00035,0.0001015,2.724e-05,0.0007147
430,0.0003925,0.00011397,3.304e-05,0.0008786
432,0.0004149,0.00012137,3.785e-05,0.0009937
434,0.0004013,0.000119,4.102e-05,0.0010364
436,0.0003374,0.0001033,4.169e-05,0.0010043
438,0.0002397,7.851e-05,4e-05,0.0009129
440,0.00014003,5.412e-05,3.771e-05,0.0007712
442,7.559e-05,3.964e-05,3.454e-05,0.0005835
444,5.511e-05,3.634e-05,3.221e-05,0.0004008
446,5.317e-05,3.73e-05,3.069e-05,0.0002471
448,5.58e-05,4e-05,3.155e-05,0.00015238
450,5.997e-05,4.368e-05,3.418e-05,0.00011601
452,6.263e-05,4.592e-05,3.654e-05,0.00010813
454,6.276e-05,4.639e-05,3.809e-05,0.00010496
456,6.188e-05,4.688e-05,3.929e-05,0.00010504
458,6.454e-05,4.912e-05,4.208e-05,0.00010642
460,6.686e-05,5.161e-05,4.499e-05,0.00010759
462,6.989e-05,5.349e-05,4.797e-05,0.00010986
464,7.384e-05,5.654e-05,5.142e-05,0.00011261
466,7.713e-05,5.92e-05,5.581e-05,0.00011746
468,8.375e-05,6.362e-05,6.19e-05,0.00012383
470,8.529e-05,6.353e-05,6.431e-05,0.00012325
472,8.349e-05,6.171e-05,6.511e-05,0.00012055
474,8.241e-05,5.921e-05,6.554e-05,0.00011811
476,7.938e-05,5.551e-05,6.451e-05,0.00010979
478,7.697e-05,5.386e-05,6.448e-05,0.00010713
480,8.03e-05,5.467e-05,6.874e-05,0.00010952
482,8.31e-05,5.751e-05,7.516e-05,0.00011358
484,8.44e-05,6.109e-05,7.895e-05,0.00011222
486,8.287e-05,7.047e-05,8.323e-05,0.00011108
488,8.331e-05,0.00011032,0.00010082,0.00011385
490,8.699e-05,0.0002523,0.00016559,0.00012637
492,9.371e-05,0.0005997,0.000329,0.00015532
494,9.836e-05,0.0012066,0.0006191,0.00019728
496,0.00010214,0.0018547,0.0009106,0.0002366
498,0.00011592,0.002479,0.0011412,0.0002671
500,0.00014209,0.003051,0.0012917,0.0002865
502,0.00017282,0.003538,0.0013786,0.0002972
504,0.00019735,0.003893,0.0014223,0.0003027
506,0.0002105,0.004032,0.0014114,0.0002979
508,0.0002149,0.003851,0.0012851,0.0002761
510,0.0002166,0.00336,0.0010176,0.0002364
512,0.0002139,0.002678,0.00067,0.0001971
514,0.0002006,0.0019804,0.0003824,0.00017287
516,0.00017596,0.0013722,0.0002345,0.00016281
518,0.000151,0.0008463,0.00018548,0.00016181
520,0.00013801,0.0005122,0.0001736,0.00016102
522,0.00013519,0.0003678,0.00016716,0.00016021
524,0.00013555,0.000316,0.00016075,0.00015961
526,0.00013799,0.000293,0.00015504,0.0001588
528,0.00014072,0.0002743,0.00014934,0.00015532
530,0.00014212,0.0002543,0.00014373,0.00014966
532,0.0001438,0.0002387,0.00014062,0.00014506
534,0.00014441,0.0002255,0.00013868,0.00014043
536,0.00014484,0.0002142,0.00013708,0.00013605
538,0.00014438,0.0002063,0.00013654,0.000134
540,0.00014235,0.00019997,0.00013667,0.00013285
542,0.00013932,0.00019405,0.00013704,0.00013325
544,0.00013574,0.00019192,0.00013811,0.00013643
546,0.00012981,0.00018976,0.00013894,0.00014075
548,0.00012403,0.00018832,0.00013994,0.00014713
550,0.00011775,0.00018693,0.0001411,0.00015658
552,0.00011249,0.00018709,0.00014179,0.0001754
554,0.00010701,0.00018652,0.00014282,0.0002337
556,0.00010541,0.00018645,0.00014284,0.0004027
558,0.00010505,0.0001863,0.00014307,0.0007466
560,0.0001073,0.00018601,0.00014307,0.0012745
562,0.00011346,0.00018557,0.00014286,0.0019965
564,0.00013227,0.00018326,0.00014211,0.003036
566,0.0002086,0.00018145,0.00014129,0.004164
568,0.0004233,0.00017833,0.00014032,0.005324
570,0.000837,0.00017376,0.00013817,0.006476
572,0.0014442,0.00016973,0.00013605,0.007546
574,0.002297,0.00016789,0.00013388,0.008492
576,0.003358,0.00017282,0.00013337,0.00926
578,0.004411,0.00018995,0.00013869,0.009772
580,0.005454,0.0002254,0.00015409,0.010066
582,0.00642,0.0002907,0.00018331,0.010162
584,0.007229,0.0004145,0.0002316,0.010158
586,0.00785,0.0006856,0.000318,0.009998
588,0.008153,0.0010329,0.0004321,0.009797
590,0.008148,0.0013714,0.0005763,0.009554
592,0.007776,0.0015934,0.0007512,0.009278
594,0.006951,0.0016786,0.0009562,0.008969
596,0.00566,0.0016595,0.0012011,0.008588
598,0.004404,0.0015925,0.0014359,0.008231
600,0.003278,0.0015248,0.0016703,0.007872
602,0.002334,0.001537,0.0018973,0.007523
604,0.0015852,0.0017446,0.002112,0.007181
606,0.0009873,0.002262,0.002315,0.006781
608,0.0006588,0.003005,0.002445,0.00633
610,0.0005322,0.003862,0.002478,0.005744
612,0.0004881,0.004764,0.002398,0.005043
614,0.0004733,0.005643,0.002206,0.004288
616,0.0004707,0.006495,0.0018819,0.003459
618,0.000478,0.007143,0.0014984,0.002669
620,0.0004955,0.007538,0.0011148,0.0019601
622,0.0005322,0.007736,0.0007596,0.0013327
624,0.0005928,0.007754,0.0005297,0.0008958
626,0.0006893,0.007615,0.0005455,0.0007967
628,0.0008101,0.007366,0.0007932,0.0010229
630,0.0009377,0.007073,0.0011292,0.0013742
632,0.0010679,0.006765,0.001492,0.0017596
634,0.0012012,0.006441,0.0018587,0.002151
636,0.0013421,0.006077,0.002252,0.002572
638,0.0014681,0.005753,0.002595,0.002943
640,0.0015866,0.005471,0.002887,0.003241
642,0.0017026,0.005219,0.003106,0.003424
644,0.001816,0.005011,0.003243,0.00348
646,0.0019464,0.004813,0.003309,0.003471
648,0.002059,0.004657,0.003324,0.003445
650,0.002145,0.004476,0.003298,0.003381
652,0.002194,0.004251,0.003205,0.003256
654,0.002227,0.004025,0.003033,0.003041
656,0.002258,0.003801,0.002722,0.002696
658,0.002287,0.003634,0.002368,0.002342
660,0.002316,0.003495,0.0019885,0.001976
662,0.00233,0.003366,0.0016107,0.0016129
664,0.002309,0.003205,0.0012218,0.0012311
666,0.002199,0.002959,0.0008452,0.0008644
668,0.002004,0.002649,0.000541,0.0005666
670,0.0017612,0.002295,0.0003214,0.0003514
672,0.0014932,0.0019219,0.0002063,0.0002374
674,0.0011784,0.0015089,0.00016084,0.00019369
676,0.0008912,0.0011406,0.00014616,0.00018147
678,0.0006248,0.0008064,0.00013843,0.00017593
680,0.0004012,0.0005293,0.00013365,0.00017191
682,0.000253,0.0003467,0.00013091,0.00016983
684,0.00018643,0.0002614,0.00012929,0.00016937
686,0.00016605,0.000231,0.00012393,0.00016507
688,0.00015691,0.0002109,0.00011698,0.00015772
690,0.00014886,0.00019575,0.00011134,0.00015294
692,0.00013842,0.00017804,0.00010362,0.0001471
694,0.00012919,0.00016435,9.5e-05,0.00013785
696,0.00012146,0.00014973,8.84e-05,0.00013472
698,0.00011274,0.00013948,8.129e-05,0.00012659
700,0.00010752,0.00012934,7.62e-05,0.00012133
702,9.754e-05,0.00012108,7.158e-05,0.00011791
704,9.574e-05,0.00011473,6.683e-05,0.00011505
706,9.12e-05,0.00010937,6.403e-05,0.00011315
708,9.006e-05,0.00010718,6.071e-05,0.00010738
710,8.905e-05,0.0001066,5.825e-05,0.00010853
712,8.843e-05,0.00010496,5.698e-05,0.0001074
714,8.586e-05,0.00010256,5.478e-05,0.00010612
716,8.223e-05,9.933e-05,5.223e-05,9.774e-05
718,7.737e-05,9.458e-05,4.991e-05,9.408e-05
720,6.962e-05,8.69e-05,4.698e-05,9.054e-05
722,6.645e-05,8.522e-05,4.473e-05,8.607e-05
724,6.274e-05,8.247e-05,4.41e-05,8.017e-05
726,6.137e-05,8.372e-05,4.245e-05,8.286e-05
728,5.685e-05,8.216e-05,4.256e-05,7.761e-05
730,5.296e-05,8.09e-05,4.196e-05,7.895e-05
732,5.367e-05,8.085e-05,4.262e-05,7.4e-05
734,5.311e-05,7.683e-05,4.033e-05,7.277e-05
736,4.383e-05,7.206e-05,3.57e-05,5.888e-05
738,3.921e-05,6.416e-05,3.163e-05,5.164e-05
740,3.491e-05,5.875e-05,2.832e-05,4.971e-05
742,3.193e-05,5.604e-05,2.628e-05,4.371e-05
744,2.663e-05,5.378e-05,2.437e-05,2.808e-05
746,2.0356e-05,4.891e-05,2.123e-05,2.743e-05
748,1.6964e-05,5.135e-05,1.974e-05,2.519e-05
750,1.7375e-05,4.842e-05,1.7831e-05,2.099e-05
752,1.7784e-05,4.607e-05,1.8069e-05,2.0801e-05
754,2.0044e-05,4.762e-05,1.7751e-05,2.1063e-05
756,1.652e-05,4.755e-05,1.9626e-05,1.5955e-05
758,2.333e-05,4.729e-05,1.8789e-05,1.6627e-05
760,1.7057e-05,4.45e-05,1.8966e-05,2.776e-05
762,2.377e-05,4.671e-05,1.8039e-05,3.004e-05
764,2.522e-05,4.656e-05,2.099e-05,4.378e-05
766,3.034e-05,4.066e-05,2.309e-05,3.928e-05
768,3.311e-05,4.307e-05,2.05e-05,5.825e-05
770,2.917e-05,4.001e-05,1.9443e-05,6.027e-05
772,3.859e-05,3.949e-05,1.9748e-05,6.917e-05
774,3.732e-05,3.761e-05,1.9002e-05,6.415e-05
776,3.663e-05,3.432e-05,2.136e-05,7.395e-05
778,3.86e-05,4.077e-05,2.069e-05,9.019e-05
780,4.301e-05,3.351e-05,2.225e-05,8.996e-05
